nu(Mhz) 260.1K

19.998 20.862
16.167 25.458
13.07 30.606
10.569 37.323
8.5415 46.809
6.9048 56.801
5.5842 67.961
4.5147 79.195
3.6496 95.293
2.9499 115.81
2.3857 141.32
1.9276 166.15
1.5577 205.37
1.2593 243.62
1.0181 284.44
0.82406 332.97
