nu(mhz) 310.0K

7.4209 2076367.82
5.331 1641948.0
3.8315 1196577.45
2.7534 868477.428
1.9788 653063.364
1.4216 463711.704
1.0213 332780.392
0.73406 243340.89
0.52717 174704.138
0.37955 122499.7625
0.27252 88367.3352
0.19566 64554.1038
0.14091 46567.9368
0.10112 33839.808
0.072568 24131.03704
0.05232 17162.0064
0.037508 12248.2374
0.026953 8799.88497
0.019452 6453.78456
0.013914 4584.80214
0.0099244 3250.042512
